1999.3	180625
1998.36	181097
1997.43	180319
1996.5	180425
1995.56	180430
1994.63	179974
1993.7	181277
1992.76	182491
1991.83	182627
1990.89	182770
1989.96	182771
1989.02	183549
1988.09	183314
1987.15	182578
1986.22	182996
1985.28	183770
1984.35	184613
1983.41	184224
1982.48	184943
1981.54	184148
1980.6	186138
1979.67	185650
1978.73	186172
1977.8	186754
1976.86	186883
1975.92	187270
1974.98	187489
1974.05	188097
1973.11	188007
1972.17	189094
1971.23	188031
1970.29	188726
1969.36	188953
1968.42	188316
1967.48	189094
1966.54	189086
1965.6	190858
1964.66	190711
1963.72	190876
1962.78	191024
1961.84	191175
1960.9	191917
1959.96	191573
1959.02	191546
1958.08	192807
1957.14	192546
1956.2	192837
1955.26	192526
1954.31	194054
1953.37	193278
1952.43	194360
1951.49	193416
1950.55	194638
1949.6	195008
1948.66	196354
1947.72	195687
1946.78	195195
1945.83	195275
1944.89	196045
1943.95	194883
1943	196174
1942.06	195830
1941.11	196080
1940.17	196605
1939.23	197040
1938.28	197403
1937.34	196922
1936.39	198383
1935.45	197868
1934.5	199122
1933.55	198990
1932.61	198385
1931.66	199075
1930.72	199310
1929.77	199197
1928.82	199683
1927.88	200493
1926.93	199944
1925.98	200285
1925.04	199817
1924.09	201121
1923.14	200738
1922.19	201231
1921.25	201571
1920.3	200995
1919.35	201762
1918.4	202500
1917.45	201980
1916.5	203175
1915.55	202843
1914.6	202747
1913.65	203323
1912.7	201440
1911.75	203021
1910.8	203173
1909.85	204185
1908.9	203458
1907.95	204974
1907	203267
1906.05	203941
1905.1	204608
1904.15	204972
1903.2	205798
1902.25	205158
1901.29	205884
1900.34	206127
1899.39	206831
1898.44	206701
1897.48	207395
1896.53	207028
1895.58	207771
1894.62	208561
1893.67	208611
1892.72	208407
1891.76	208623
1890.81	209265
1889.85	209142
1888.9	209554
1887.95	209724
1886.99	210180
1886.04	210827
1885.08	211225
1884.13	211758
1883.17	211334
1882.21	213005
1881.26	213679
1880.3	214487
1879.35	215325
1878.39	215726
1877.43	217599
1876.48	219612
1875.52	221992
1874.56	224572
1873.6	230222
1872.65	236005
1871.69	242551
1870.73	250582
1869.77	255658
1868.81	258662
1867.85	257538
1866.9	253732
1865.94	246875
1864.98	241616
1864.02	236680
1863.06	232717
1862.1	229823
1861.14	229254
1860.18	227604
1859.22	226463
1858.26	226816
1857.3	226659
1856.34	226333
1855.37	225128
1854.41	226443
1853.45	225022
1852.49	224949
1851.53	224613
1850.57	224477
1849.6	225396
1848.64	225439
1847.68	224374
1846.72	224617
1845.75	225027
1844.79	225117
1843.83	224288
1842.86	224770
1841.9	225464
1840.93	225424
1839.97	225125
1839.01	225972
1838.04	226661
1837.08	227307
1836.11	226567
1835.15	226771
1834.18	227360
1833.22	227718
1832.25	227269
1831.28	227143
1830.32	227820
1829.35	228509
1828.39	228311
1827.42	229238
1826.45	228913
1825.48	227936
1824.52	228191
1823.55	229279
1822.58	229611
1821.61	242250
1820.65	230862
1819.68	229840
1818.71	229011
1817.74	230488
1816.77	230427
1815.8	230515
1814.83	231575
1813.86	230804
1812.89	230804
1811.93	231436
1810.96	231730
1809.98	232454
1809.01	232539
1808.04	232851
1807.07	232788
1806.1	231779
1805.13	232829
1804.16	233030
1803.19	234159
1802.22	234583
1801.24	234842
1800.27	234579
1799.3	235815
1798.33	236660
1797.35	236980
1796.38	237395
1795.41	239027
1794.44	240310
1793.46	240475
1792.49	241225
1791.51	240810
1790.54	241855
1789.57	241478
1788.59	241850
1787.62	241963
1786.64	243528
1785.67	242269
1784.69	241782
1783.72	241136
1782.74	240704
1781.76	240048
1780.79	240179
1779.81	239942
1778.84	240283
1777.86	240688
1776.88	239114
1775.91	240135
1774.93	239238
1773.95	238768
1772.97	239408
1772	240702
1771.02	240375
1770.04	240273
1769.06	240795
1768.08	240884
1767.1	242116
1766.12	242246
1765.15	242986
1764.17	242542
1763.19	242179
1762.21	242896
1761.23	243133
1760.25	243479
1759.27	244506
1758.29	245424
1757.3	245532
1756.32	244502
1755.34	245197
1754.36	246472
1753.38	246018
1752.4	246472
1751.42	247250
1750.43	246348
1749.45	246950
1748.47	247188
1747.49	248043
1746.5	247874
1745.52	247544
1744.54	247840
1743.55	249333
1742.57	248737
1741.59	249373
1740.6	249790
1739.62	250634
1738.63	251236
1737.65	250868
1736.66	251201
1735.68	251211
1734.69	251556
1733.71	251820
1732.72	251874
1731.74	252888
1730.75	252054
1729.76	251795
1728.78	252634
1727.79	252497
1726.8	253201
1725.82	254041
1724.83	253970
1723.84	253473
1722.85	254293
1721.87	253573
1720.88	254620
1719.89	255363
1718.9	255046
1717.91	254970
1716.92	253558
1715.93	255613
1714.94	254965
1713.96	255714
1712.97	256087
1711.98	255853
1710.99	257042
1710	257669
1709.01	256998
1708.01	256820
1707.02	257563
1706.03	257133
1705.04	256942
1704.05	257574
1703.06	258440
1702.07	257878
1701.07	258862
1700.08	258550
1699.09	258193
1698.1	258675
1697.1	258678
1696.11	259557
1695.12	258926
1694.12	259858
1693.13	259994
1692.14	258734
1691.14	260160
1690.15	260193
1689.15	261119
1688.16	260352
1687.16	261166
1686.17	261176
1685.17	261357
1684.18	261254
1683.18	261912
1682.19	262421
1681.19	262803
1680.19	261839
1679.2	262985
1678.2	262912
1677.2	262575
1676.21	263362
1675.21	262602
1674.21	263516
1673.21	263881
1672.22	264171
1671.22	263078
1670.22	264620
1669.22	264489
1668.22	265154
1667.22	265395
1666.22	265717
1665.23	265350
1664.23	265132
1663.23	265853
1662.23	265827
1661.23	266840
1660.23	266312
1659.22	267370
1658.22	266893
1657.22	267389
1656.22	266803
1655.22	267023
1654.22	267091
1653.22	266865
1652.22	268348
1651.21	269027
1650.21	268409
1649.21	269379
1648.21	270367
1647.2	271857
1646.2	273786
1645.2	275173
1644.19	276550
1643.19	278556
1642.18	282217
1641.18	284281
1640.18	284380
1639.17	282991
1638.17	280607
1637.16	279120
1636.16	277745
1635.15	277560
1634.15	278771
1633.14	280922
1632.13	284463
1631.13	289774
1630.12	297788
1629.11	306847
1628.11	317842
1627.1	324264
1626.09	323883
1625.09	315559
1624.08	305499
1623.07	295756
1622.06	289010
1621.05	285467
1620.05	281735
1619.04	279376
1618.03	279378
1617.02	278876
1616.01	277714
1615	276920
1613.99	277631
1612.98	278129
1611.97	278766
1610.96	278966
1609.95	278801
1608.94	278660
1607.93	278880
1606.92	279387
1605.9	279934
1604.89	281760
1603.88	282212
1602.87	283990
1601.86	286212
1600.84	289398
1599.83	292406
1598.82	298653
1597.81	304525
1596.79	314419
1595.78	326776
1594.77	335623
1593.75	332075
1592.74	320566
1591.72	305371
1590.71	295501
1589.69	289983
1588.68	286463
1587.66	285582
1586.65	283586
1585.63	283720
1584.62	281981
1583.6	281592
1582.59	282127
1581.57	282796
1580.55	282251
1579.54	282277
1578.52	282269
1577.5	281668
1576.49	282692
1575.47	283113
1574.45	282672
1573.43	283248
1572.41	283512
1571.4	284947
1570.38	284420
1569.36	284595
1568.34	286000
1567.32	286184
1566.3	286481
1565.28	286749
1564.26	286801
1563.24	286725
1562.22	286157
1561.2	285929
1560.18	287022
1559.16	285901
1558.14	287331
1557.12	287407
1556.09	288225
1555.07	289609
1554.05	290189
1553.03	293018
1552.01	292591
1550.98	293935
1549.96	293078
1548.94	290804
1547.92	290635
1546.89	288941
1545.87	289754
1544.84	288918
1543.82	288176
1542.8	288446
1541.77	288214
1540.75	287797
1539.72	288279
1538.7	287657
1537.67	287506
1536.65	288139
1535.62	286698
1534.59	287142
1533.57	287729
1532.54	287947
1531.52	287472
1530.49	288044
1529.46	287121
1528.43	287561
1527.41	287680
1526.38	288176
1525.35	287742
1524.32	288435
1523.3	287291
1522.27	286389
1521.24	287276
1520.21	286850
1519.18	287418
1518.15	287080
1517.12	288000
1516.09	287827
1515.06	287438
1514.03	287306
1513	287529
1511.97	287785
1510.94	288313
1509.91	287454
1508.88	288059
1507.85	288044
1506.82	287752
1505.78	287546
1504.75	288654
1503.72	288547
1502.69	288764
1501.65	289314
1500.62	288599
1499.59	289043
1498.56	288435
1497.52	288927
1496.49	289199
1495.45	288316
1494.42	288617
1493.39	288802
1492.35	289083
1491.32	288898
1490.28	289032
1489.25	289823
1488.21	290546
1487.18	289185
1486.14	288865
1485.1	289365
1484.07	290090
1483.03	290028
1481.99	290258
1480.96	290184
1479.92	290891
1478.88	291313
1477.85	292661
1476.81	291666
1475.77	291965
1474.73	292615
1473.69	291606
1472.65	293032
1471.62	291848
1470.58	292825
1469.54	292673
1468.5	293734
1467.46	293281
1466.42	294185
1465.38	294026
1464.34	294977
1463.3	295138
1462.26	295538
1461.22	295727
1460.17	296449
1459.13	296878
1458.09	296834
1457.05	297277
1456.01	297691
1454.97	296032
1453.92	297527
1452.88	298085
1451.84	298486
1450.79	298072
1449.75	299137
1448.71	299890
1447.66	299742
1446.62	300509
1445.58	300213
1444.53	300821
1443.49	300879
1442.44	301542
1441.4	301568
1440.35	301757
1439.31	301836
1438.26	300591
1437.21	301671
1436.17	302510
1435.12	302314
1434.08	301798
1433.03	302268
1431.98	302975
1430.93	303261
1429.89	302590
1428.84	303857
1427.79	303517
1426.74	303319
1425.7	303342
1424.65	302946
1423.6	303479
1422.55	304415
1421.5	304031
1420.45	303778
1419.4	304489
1418.35	304567
1417.3	305066
1416.25	305472
1415.2	306615
1414.15	308353
1413.1	313210
1412.05	324440
1411	344206
1409.95	375606
1408.89	413060
1407.84	442185
1406.79	436524
1405.74	401280
1404.68	360287
1403.63	333031
1402.58	319833
1401.53	315283
1400.47	312040
1399.42	310588
1398.36	308814
1397.31	307675
1396.26	307654
1395.2	307397
1394.15	307248
1393.09	307751
1392.04	306315
1390.98	305262
1389.93	305289
1388.87	305675
1387.81	306242
1386.76	305132
1385.7	305216
1384.64	306028
1383.59	305411
1382.53	305611
1381.47	306106
1380.41	305241
1379.36	306026
1378.3	306490
1377.24	307799
1376.18	308744
1375.12	309468
1374.06	310604
1373.01	309425
1371.95	308788
1370.89	307886
1369.83	306803
1368.77	307870
1367.71	307186
1366.65	306255
1365.59	306493
1364.52	306858
1363.46	306762
1362.4	306498
1361.34	307400
1360.28	306691
1359.22	307986
1358.15	307207
1357.09	307804
1356.03	308434
1354.97	308361
1353.9	308784
1352.84	308767
1351.78	308799
1350.71	308141
1349.65	309778
1348.58	309032
1347.52	308524
1346.46	309198
1345.39	309749
1344.33	309562
1343.26	310901
1342.19	311079
1341.13	312121
1340.06	314034
1339	316334
1337.93	316986
1336.86	319857
1335.8	321061
1334.73	322161
1333.66	321504
1332.59	322011
1331.53	319696
1330.46	319871
1329.39	318096
1328.32	318200
1327.25	317245
1326.18	316644
1325.12	316410
1324.05	316421
1322.98	317127
1321.91	318767
1320.84	319553
1319.77	321767
1318.7	324122
1317.63	324062
1316.56	322517
1315.48	322893
1314.41	320369
1313.34	320797
1312.27	319687
1311.2	318385
1310.13	317451
1309.05	317182
1307.98	315825
1306.91	315272
1305.83	314631
1304.76	313555
1303.69	314535
1302.61	314765
1301.54	313950
1300.47	314281
1299.39	316468
1298.32	316041
1297.24	318899
1296.17	321049
1295.09	321596
1294.02	321319
1292.94	322305
1291.86	322029
1290.79	320838
1289.71	320376
1288.63	318505
1287.56	317464
1286.48	316235
1285.4	315322
1284.33	313674
1283.25	314757
1282.17	313443
1281.09	313009
1280.01	313642
1278.93	313936
1277.86	314735
1276.78	314407
1275.7	314900
1274.62	313426
1273.54	312106
1272.46	311499
1271.38	311969
1270.3	311860
1269.22	311700
1268.13	312417
1267.05	312067
1265.97	313301
1264.89	313238
1263.81	313478
1262.73	314436
1261.64	315428
1260.56	315799
1259.48	316592
1258.4	316736
1257.31	316012
1256.23	318009
1255.15	318657
1254.06	319243
1252.98	320627
1251.89	322446
1250.81	324693
1249.72	328398
1248.64	333511
1247.55	340369
1246.47	350240
1245.38	361337
1244.3	369002
1243.21	370181
1242.12	372474
1241.04	380295
1239.95	398824
1238.86	422539
1237.78	434605
1236.69	414732
1235.6	380127
1234.51	353792
1233.43	337427
1232.34	327600
1231.25	322782
1230.16	320237
1229.07	317785
1227.98	316135
1226.89	315082
1225.8	314386
1224.71	313831
1223.62	312695
1222.53	312863
1221.44	312069
1220.35	312594
1219.26	312811
1218.17	312734
1217.07	312618
1215.98	312605
1214.89	313153
1213.8	312085
1212.71	313253
1211.61	313702
1210.52	314268
1209.43	313198
1208.33	312929
1207.24	312107
1206.15	312560
1205.05	312497
1203.96	311700
1202.86	312183
1201.77	311517
1200.67	311342
1199.58	311338
1198.48	310600
1197.39	311212
1196.29	310978
1195.19	311406
1194.1	311805
1193	312369
1191.9	312044
1190.81	311677
1189.71	312031
1188.61	312257
1187.51	311315
1186.42	312333
1185.32	312687
1184.22	313085
1183.12	314287
1182.02	314560
1180.92	316759
1179.82	317452
1178.72	315742
1177.62	314841
1176.52	313043
1175.42	313314
1174.32	312721
1173.22	312278
1172.12	313053
1171.02	313918
1169.92	314237
1168.82	313425
1167.71	312724
1166.61	313341
1165.51	315025
1164.41	314295
1163.3	314573
1162.2	314215
1161.1	314258
1159.99	315367
1158.89	315949
1157.79	316090
1156.68	315936
1155.58	316159
1154.47	317258
1153.37	317609
1152.26	317088
1151.16	317620
1150.05	319039
1148.95	320740
1147.84	323689
1146.73	329037
1145.63	332038
1144.52	331801
1143.41	325499
1142.3	323014
1141.2	320156
1140.09	319832
1138.98	319638
1137.87	318795
1136.76	319021
1135.66	319882
1134.55	319887
1133.44	320717
1132.33	320566
1131.22	320340
1130.11	320300
1129	320987
1127.89	320775
1126.78	320626
1125.67	320536
1124.56	320514
1123.44	320327
1122.33	320329
1121.22	320176
1120.11	320367
1119	320452
1117.88	320996
1116.77	320962
1115.66	320649
1114.55	321091
1113.43	322153
1112.32	323827
1111.2	324829
1110.09	324466
1108.98	325470
1107.86	325280
1106.75	324241
1105.63	323408
1104.52	321844
1103.4	321848
1102.28	321354
1101.17	321544
1100.05	321306
1098.94	320649
1097.82	320129
1096.7	320498
1095.59	320265
1094.47	320275
1093.35	319163
1092.23	320075
1091.11	319797
1090	320273
1088.88	321150
1087.76	320609
1086.64	320827
1085.52	320772
1084.4	320231
1083.28	319598
1082.16	321361
1081.04	321659
1079.92	321047
1078.8	322388
1077.68	323455
1076.56	324551
1075.44	327382
1074.31	330522
1073.19	336308
1072.07	340882
1070.95	339832
1069.82	336616
1068.7	332842
1067.58	331930
1066.46	330335
1065.33	327689
1064.21	325953
1063.08	325499
1061.96	325230
1060.84	323665
1059.71	323425
1058.59	323370
1057.46	324315
1056.33	323566
1055.21	323944
1054.08	324151
1052.96	324990
1051.83	324217
1050.7	325353
1049.58	324122
1048.45	324120
1047.32	324426
1046.19	326035
1045.07	326205
1043.94	326469
1042.81	326071
1041.68	326711
1040.55	326108
1039.42	326402
1038.29	327364
1037.16	326458
1036.03	327112
1034.9	326392
1033.77	326531
1032.64	327302
1031.51	326748
1030.38	327470
1029.25	328508
1028.12	327245
1026.99	326762
1025.86	327850
1024.72	328392
1023.59	328042
1022.46	328559
1021.33	328055
1020.19	328234
1019.06	328348
1017.93	328055
1016.79	328488
1015.66	328297
1014.52	328198
1013.39	328507
1012.25	329171
1011.12	328654
1009.98	327882
1008.85	328505
1007.71	329067
1006.58	328753
1005.44	328377
1004.3	328736
1003.17	329053
1002.03	328330
1000.89	328742
999.754	328522
998.616	329388
997.478	329063
996.34	329957
995.201	328543
994.063	329321
992.924	329595
991.785	329920
990.645	330784
989.505	329608
988.365	328942
987.225	329352
986.085	329444
984.944	329544
983.803	330397
982.662	331457
981.521	329886
980.379	329929
979.237	329174
978.095	330169
976.953	330523
975.81	330317
974.667	329967
973.524	330662
972.381	330744
971.237	329821
970.093	329631
968.949	331033
967.805	330737
966.66	330092
965.515	330308
964.37	331111
963.225	331540
962.079	330313
960.934	331086
959.788	331485
958.641	331388
957.495	331365
956.348	331595
955.201	331877
954.054	332055
952.906	332389
951.759	332015
950.611	333146
949.462	334127
948.314	333450
947.165	332783
946.016	333473
944.867	334790
943.717	333637
942.568	333846
941.418	334475
940.267	334642
939.117	334443
937.966	335651
936.815	335449
935.664	335247
934.513	335203
933.361	335498
932.209	335873
931.057	335517
929.904	336945
928.752	335849
927.599	337334
926.446	336845
925.292	337588
924.139	337512
922.985	338024
921.831	337856
920.676	338449
919.521	338552
918.367	338663
917.211	337907
916.056	338053
914.9	338906
913.744	339444
912.588	340085
911.432	339132
910.275	340185
909.118	340469
907.961	340111
906.804	339977
905.646	339291
904.488	340587
903.33	339789
902.172	340679
901.013	341499
899.854	340457
898.695	340239
897.536	340904
896.376	341807
895.216	340691
894.056	340264
892.896	341514
891.735	340340
890.575	342151
889.413	340640
888.252	342286
887.09	341804
885.929	342449
884.766	341842
883.604	342534
882.442	342080
881.279	342680
880.116	342834
878.952	341877
877.789	342186
876.625	343045
875.461	343742
874.296	343795
873.132	342532
871.967	342469
870.802	344148
869.636	343662
868.471	343580
867.305	343877
866.139	344558
864.972	344136
863.806	344602
862.639	345100
861.472	345073
860.304	345481
859.137	345398
857.969	346983
856.801	346809
855.632	345378
854.464	346080
853.295	347668
852.126	347356
850.956	346524
849.787	348159
848.617	348133
847.447	350473
846.276	349880
845.106	349929
843.935	349328
842.764	349308
841.592	349491
840.421	349386
839.249	349247
838.077	350174
836.904	348868
835.732	349367
834.559	350478
833.386	350058
832.212	351030
831.038	350297
829.865	351222
828.69	352258
827.516	351879
826.341	351437
825.166	351708
823.991	351543
822.816	353658
821.64	353331
820.464	352640
819.288	353138
818.111	352800
816.935	354118
815.758	353483
814.58	353509
813.403	354666
812.225	354498
811.047	354188
809.869	354565
808.691	353804
807.512	354344
806.333	356738
805.154	358567
803.974	358358
802.794	359681
801.614	359625
800.434	359573
799.253	359361
798.073	361302
796.892	361535
795.71	361323
794.529	361347
793.347	360716
792.165	360655
790.983	359871
789.8	358668
788.617	359297
787.434	359635
786.251	358607
785.067	359818
783.883	360044
782.699	359407
781.515	359916
780.33	360446
779.145	360608
777.96	360688
776.775	362240
775.589	360802
774.403	361504
773.217	360956
772.031	361362
770.844	361861
769.657	362711
768.47	362709
767.282	362403
766.095	362255
764.907	364260
763.718	364156
762.53	363000
761.341	362852
760.152	363833
758.963	364351
757.773	364497
756.584	364834
755.394	365738
754.203	366772
753.013	367165
751.822	370792
750.631	376482
749.44	383613
748.248	384881
747.056	382402
745.864	379823
744.672	382660
743.479	387645
742.286	384583
741.093	377918
739.9	371799
738.706	370949
737.512	369191
736.318	369044
735.124	370494
733.929	368987
732.734	369817
731.539	369245
730.343	369556
729.148	369172
727.952	369918
726.755	369657
725.559	369230
724.362	368517
723.165	371008
721.968	370251
720.77	370367
719.573	370791
718.374	371053
717.176	371859
715.978	370948
714.779	371092
713.58	371543
712.38	372023
711.181	371840
709.981	372297
708.781	371501
707.58	372428
706.379	373076
705.179	372824
703.977	374504
702.776	374707
701.574	373931
700.372	373280
699.17	374209
697.967	373312
696.765	374123
695.562	374216
694.358	373999
693.155	375748
691.951	374966
690.747	375595
689.543	374898
688.338	374819
687.133	375882
685.928	375564
684.723	375306
683.517	376049
682.311	375878
681.105	378082
679.898	376626
678.692	376749
677.485	377572
676.277	378148
675.07	377602
673.862	378536
672.654	377948
671.446	379612
670.237	380355
669.029	378193
667.819	379211
666.61	378859
665.401	379231
664.191	380116
662.981	379500
661.77	379487
660.559	380434
659.349	380752
658.137	381241
656.926	381211
655.714	381806
654.502	382329
653.29	382368
652.077	382026
650.865	382541
649.652	383354
648.438	383630
647.225	384364
646.011	384976
644.797	386982
643.582	392695
642.368	399564
641.153	414509
639.938	436944
638.722	458982
637.507	454111
636.291	427635
635.074	405556
633.858	396215
632.641	392911
631.424	391911
630.207	389839
628.989	388996
627.771	388396
626.553	387734
625.335	387637
624.116	388225
622.897	388712
621.678	387315
620.459	388130
619.239	387776
618.019	389003
616.799	389268
615.578	388271
614.358	388125
613.137	388339
611.915	390206
610.694	388467
609.472	390009
608.25	389230
607.027	390570
605.805	390450
604.582	389679
603.359	391873
602.135	391237
600.912	390990
599.688	392949
598.463	393855
597.239	397711
596.014	404492
594.789	416803
593.564	437534
592.338	456786
591.112	457885
589.886	437493
588.66	415173
587.433	403284
586.206	398120
584.979	395726
583.751	394843
582.524	393213
581.296	393509
580.067	394093
578.839	394783
577.61	396810
576.381	396581
575.151	395560
573.922	393877
572.692	394045
571.462	393418
570.231	392293
569	393527
567.769	392665
566.538	392412
565.307	393625
564.075	392503
562.843	393521
561.61	392984
560.378	392512
559.145	393561
557.912	394093
556.678	393640
555.445	393804
554.211	394250
552.976	393643
551.742	394597
550.507	393537
549.272	393515
548.037	394242
546.801	394782
545.565	395306
544.329	395439
543.093	395015
541.856	395678
540.619	395716
539.382	396431
538.144	397160
536.906	396301
535.668	397576
534.43	396136
533.191	397851
531.953	397009
530.713	396788
529.474	398415
528.234	397619
526.994	397530
525.754	397085
524.514	397655
523.273	398768
522.032	397501
520.79	398997
519.549	398188
518.307	398666
517.065	399580
515.822	399601
514.58	400253
513.337	402131
512.093	401819
510.85	405898
509.606	408178
508.362	409220
507.118	408167
505.873	407002
504.628	407320
503.383	405232
502.137	404250
500.892	402739
499.646	402416
498.399	403125
497.153	402549
495.906	402367
494.659	403030
493.412	403731
492.164	404914
490.916	406876
489.668	406764
488.419	405963
487.17	403695
485.921	402793
484.672	402078
483.422	402627
482.173	402020
480.922	403557
479.672	404013
478.421	403000
477.17	403127
475.919	403236
474.668	403824
473.416	404090
472.164	404136
470.911	403837
469.659	404167
468.406	404987
467.153	405223
465.899	404650
464.645	405300
463.391	405101
462.137	404812
460.882	406840
459.628	408352
458.372	409992
457.117	413611
455.861	414557
454.605	411436
453.349	408570
452.093	407206
450.836	406022
449.579	407046
448.321	406731
447.064	406712
445.806	406650
444.548	405914
443.289	407210
442.03	405517
440.771	406698
439.512	406034
438.252	406650
436.992	406761
435.732	406283
434.472	406447
433.211	405425
431.95	406148
430.689	406393
429.427	405787
428.165	407543
426.903	406611
425.641	406192
424.378	405793
423.115	406172
421.852	406066
420.589	406534
419.325	406483
418.061	407093
416.796	408404
415.532	409572
414.267	412847
413.001	421495
411.736	437454
410.47	467080
409.204	498541
407.938	500467
406.671	468409
405.404	434158
404.137	416988
402.87	412674
401.602	409601
400.334	408567
399.066	408526
397.797	407646
396.528	407306
395.259	407268
393.989	406728
392.72	406482
391.45	407348
390.179	407909
388.909	408058
387.638	408857
386.367	408960
385.095	409034
383.824	408039
382.552	408750
381.28	408122
380.007	410106
378.734	409791
377.461	410102
376.188	408872
374.914	409740
373.64	409188
372.366	409053
371.091	409649
369.816	410607
368.541	410582
367.266	411698
365.99	410122
364.714	411639
363.438	410648
362.161	411234
360.885	411305
359.607	411066
358.33	411667
357.052	412239
355.774	411513
354.496	411302
353.218	410909
351.939	411587
350.66	411875
349.38	412039
348.101	412281
346.821	424632
345.54	413844
344.26	411961
342.979	411565
341.698	411276
340.417	412083
339.135	411962
337.853	411244
336.571	410618
335.288	410976
334.005	410763
332.722	410747
331.439	410190
330.155	411428
328.871	411029
327.587	410374
326.302	410981
325.018	411757
323.732	410610
322.447	412061
321.161	412013
319.875	412236
318.589	411112
317.302	411177
316.016	410238
314.728	410946
313.441	411952
312.153	410322
310.865	410084
309.577	411269
308.288	411255
307	411207
305.71	410814
304.421	409947
303.131	410144
301.841	410416
300.551	410272
299.26	410073
297.969	409615
296.678	410271
295.387	410123
294.095	408779
292.803	409148
291.511	408089
290.218	408264
288.925	408375
287.632	409018
286.338	408206
285.045	408754
283.75	410043
282.456	411730
281.161	414517
279.866	418578
278.571	421146
277.276	422389
275.98	422932
274.684	419850
273.387	415953
272.091	414033
270.794	412339
269.496	410126
268.199	410338
266.901	407966
265.603	409287
264.304	408670
263.006	411265
261.707	412680
260.407	416400
259.108	420346
257.808	421037
256.507	414033
255.207	409990
253.906	405577
252.605	404466
251.304	404217
250.002	404506
248.7	402474
247.398	403315
246.095	402414
244.792	403166
243.489	403833
242.186	403531
240.882	404853
239.578	406963
238.274	413358
236.969	406027
235.664	406782
234.359	406656
233.054	404877
231.748	401150
230.442	399065
229.135	395766
227.829	392779
226.522	390263
225.215	389257
223.907	387265
222.599	385734
221.291	384785
219.983	383170
218.674	382602
217.365	381030
216.056	379407
214.746	377514
213.436	378585
212.126	378011
210.815	376680
209.505	377146
208.194	376049
206.882	376797
205.57	376813
204.259	378893
202.946	379541
201.634	382580
200.321	384395
199.008	382956
197.694	380144
196.38	377225
195.066	375144
193.752	375008
192.437	374605
191.122	374173
189.807	374782
188.492	376748
187.176	375836
185.86	378640
184.543	378627
183.227	381331
181.91	383218
180.592	384893
179.275	385521
177.957	384615
176.638	383852
175.32	384054
174.001	383544
172.682	383116
171.363	381688
170.043	381829
168.723	381631
167.403	381382
166.082	381159
164.761	380314
163.44	378436
162.118	376882
160.797	375895
159.475	374437
158.152	373204
156.829	371149
155.506	369120
154.183	367648
152.86	365058
151.536	364037
150.211	361576
148.887	359355
147.562	356404
146.237	354717
144.912	351860
143.586	350344
142.26	347110
140.934	346057
139.607	344154
138.28	343959
136.953	342114
135.625	342602
134.298	345069
132.97	347101
131.641	352845
130.312	359234
128.983	366227
127.654	373561
126.324	378815
124.995	378571
123.664	370360
122.334	350248
121.003	317512
119.672	274279
118.34	224933
117.009	176733
115.677	133933
114.344	98682
113.012	71587.4
111.679	51956.6
110.346	37858.8
109.012	28060.5
107.678	20935.6
106.344	15955.8
105.01	12302.8
103.675	9533.55
102.34	7819.86
101.004	6324.11
99.6686	5315.68
